Time(s),Position(V)
0.454000,-0.983736
3.468000,-1.005459
6.468000,-0.942188
9.466000,-0.996793
12.466000,-0.991269
15.467000,-0.974802
18.467000,-0.962717
21.467000,-0.952747
24.467000,-0.938003
27.465000,-0.920669
30.465000,-0.903774
33.465000,-0.885383
36.465000,-0.859513
39.466000,-0.841135
42.464000,-0.813943
45.464000,-0.784925
48.464000,-0.756485
51.464000,-0.724408
54.464000,-0.690910
57.463000,-0.655542
60.464000,-0.618382
63.464000,-0.578031
66.462000,-0.533862
69.462000,-0.488322
72.462000,-0.443786
75.462000,-0.399025
78.462000,-0.353840
81.463000,-0.297300
84.461000,-0.243867
87.461000,-0.192137
90.460000,-0.140976
93.460000,-0.084935
96.460000,-0.027519
99.460000,0.031330
102.460000,0.095073
105.459000,0.154455
108.459000,0.206415
111.459000,0.266950
114.459000,0.332280
117.459000,0.396857
120.459000,0.461416
123.457000,0.526920
126.458000,0.589739
129.458000,0.654628
132.458000,0.722848
135.458000,0.794080
138.456000,0.863062
141.457000,0.928247
144.457000,0.994788
147.456000,1.063396
150.456000,1.132524
153.456000,1.200652
156.456000,1.268910
159.456000,1.340153
162.454000,1.410018
165.454000,1.485541
168.454000,1.557028
171.455000,1.633567
174.455000,1.702851
177.453000,1.768978
180.453000,1.839279
183.453000,1.912789
186.452000,1.982311
189.452000,2.049042
192.453000,2.116566
195.453000,2.180217
198.453000,2.245130
201.451000,2.300137
204.451000,2.361810
207.451000,2.421943
210.451000,2.479282
213.451000,2.534941
216.451000,2.579076
219.451000,2.633073
222.451000,2.686853
225.449000,2.739551
228.449000,2.794177
231.449000,2.850251
234.449000,2.907053
237.450000,2.963939
240.450000,3.017433
243.448000,3.070312
246.448000,3.119958
249.448000,3.161132
252.448000,3.206239
255.448000,3.248879
258.447000,3.285909
261.447000,3.322028
264.447000,3.355928
267.447000,3.385942
270.447000,3.417849
273.445000,3.446153
276.445000,3.473627
279.446000,3.499371
282.446000,3.522070
285.446000,3.547736
288.446000,3.574024
291.444000,3.596062
294.444000,3.618169
297.444000,3.638641
300.444000,3.658759
303.445000,3.673655
306.443000,3.687987
309.443000,3.703475
312.443000,3.711617
315.443000,3.726442
318.443000,3.730273
321.441000,3.721084
324.442000,3.734869
327.442000,3.724919
330.442000,3.724647
333.442000,3.722478
336.440000,3.707140
339.440000,3.700834
342.440000,3.687960
345.441000,3.674862
348.441000,3.660530
351.440000,3.643944
354.440000,3.624064
357.440000,3.603711
360.438000,3.581982
363.439000,3.560732
366.439000,3.535474
369.438000,3.516573
372.438000,3.491107
375.438000,3.468929
378.438000,3.441696
381.438000,3.415201
384.436000,3.392404
387.436000,3.366140
390.437000,3.330738
393.437000,3.301676
396.437000,3.272005
399.437000,3.240418
402.435000,3.201766
405.435000,3.166826
408.435000,3.126763
411.436000,3.085178
414.436000,3.040924
417.434000,2.991047
420.435000,2.939871
423.435000,2.889675
426.433000,2.838356
429.433000,2.787623
432.433000,2.738664
435.434000,2.691360
438.434000,2.643968
441.432000,2.598259
444.432000,2.550147
447.432000,2.502707
450.432000,2.458752
453.432000,2.411530
456.431000,2.363374
459.431000,2.316114
462.431000,2.265581
465.431000,2.214239
468.431000,2.163121
471.431000,2.111596
474.429000,2.056807
477.430000,2.001922
480.430000,1.947494
483.430000,1.888703
486.430000,1.833459
489.428000,1.777687
492.428000,1.721052
495.428000,1.666141
498.429000,1.610641
501.429000,1.555791
504.427000,1.501209
507.427000,1.449449
510.427000,1.396077
513.427000,1.342594
516.427000,1.293709
519.427000,1.240902
522.426000,1.190406
525.426000,1.144976
528.426000,1.096296
531.426000,1.050376
534.426000,1.001682
537.424000,0.954895
540.424000,0.909149
543.425000,0.863038
546.425000,0.820644
549.425000,0.778229
552.423000,0.736429
555.423000,0.694347
558.423000,0.652224
561.423000,0.614905
564.423000,0.574808
567.422000,0.536670
570.422000,0.499520
573.422000,0.462748
576.422000,0.427649
579.422000,0.392176
582.422000,0.361036
585.420000,0.332355
588.421000,0.298874
591.421000,0.268170
594.421000,0.241501
597.421000,0.214955
600.419000,0.187722
603.419000,0.164911
606.419000,0.138528
609.420000,0.114327
612.420000,0.094624
615.420000,0.074639
618.418000,0.055792
621.419000,0.040658
624.417000,0.025034
627.417000,0.008570
630.417000,-0.003236
633.418000,-0.016158
636.418000,-0.026291
639.418000,-0.035902
642.416000,-0.038431
645.416000,-0.044971
648.416000,-0.050380
651.416000,-0.059253
654.417000,-0.065358
657.415000,-0.065300
660.415000,-0.055717
663.415000,-0.040838
666.415000,-0.057923
669.415000,-0.036830
672.413000,-0.048837
675.414000,-0.029208
678.414000,-0.014760
681.414000,-0.007802
684.414000,0.004596
687.412000,0.016885
690.412000,0.025544
693.412000,0.046029
696.412000,0.047321
699.412000,0.063240
702.412000,0.088335
705.412000,0.106886
708.412000,0.118808
711.410000,0.142196
714.410000,0.166016
717.410000,0.183649
720.411000,0.208924
723.411000,0.228872
726.411000,0.258539
729.409000,0.281428
732.409000,0.307573
735.409000,0.335581
738.409000,0.366894
741.410000,0.394504
744.408000,0.426853
747.408000,0.456877
750.408000,0.489937
753.408000,0.520454
756.408000,0.553983
759.406000,0.588161
762.406000,0.622907
765.407000,0.658928
768.407000,0.695305
771.407000,0.732360
774.405000,0.765712
777.405000,0.803470
780.405000,0.841985
783.405000,0.879910
786.406000,0.918300
789.406000,0.958720
792.404000,0.997113
795.404000,1.037954
798.404000,1.079054
801.404000,1.118691
804.404000,1.156456
807.403000,1.194877
810.403000,1.236707
813.403000,1.279132
816.403000,1.322336
819.403000,1.363463
822.403000,1.403801
825.401000,1.448262
828.401000,1.489389
831.402000,1.529577
834.402000,1.571789
837.402000,1.615427
840.400000,1.656071
843.400000,1.699234
846.400000,1.739708
849.400000,1.781828
852.401000,1.820218
855.400000,1.861117
858.400000,1.899459
861.400000,1.943238
864.398000,1.982498
867.398000,2.020110
870.398000,2.059452
873.399000,2.095343
876.399000,2.134294
879.397000,2.167497
882.397000,2.201481
885.397000,2.232753
888.397000,2.268651
891.397000,2.288670
894.396000,2.323743
897.396000,2.354868
900.396000,2.383233
903.396000,2.413886
906.396000,2.439375
909.396000,2.464531
912.394000,2.488141
915.394000,2.511872
918.395000,2.536178
921.395000,2.531365
924.395000,2.571818
927.393000,2.588418
930.393000,2.609855
933.393000,2.627243
936.393000,2.647980
939.394000,2.663743
942.394000,2.683793
945.392000,2.700168
948.392000,2.714677
951.392000,2.726545
954.392000,2.743019
957.392000,2.758724
960.391000,2.761444
963.391000,2.781606
966.391000,2.789962
969.391000,2.801302
972.391000,2.810358
975.389000,2.816664
978.390000,2.823973
981.390000,2.829729
984.389000,2.836320
987.389000,2.826700
990.389000,2.814965
993.389000,2.838200
996.389000,2.818011
999.387000,2.820098
1002.387000,2.828311
1005.388000,2.825088
1008.387000,2.809362
1011.387000,2.804505
1014.387000,2.798481
1017.387000,2.794058
1020.387000,2.787623
1023.385000,2.780525
1026.386000,2.770095
1029.386000,2.761039
1032.386000,2.753907
1035.386000,2.742006
1038.384000,2.729720
1041.384000,2.717669
1044.384000,2.705268
1047.384000,2.692139
1050.385000,2.676141
1053.385000,2.662139
1056.383000,2.646481
1059.383000,2.630398
1062.383000,2.614431
1065.383000,2.598732
1068.383000,2.580528
1071.382000,2.561905
1074.382000,2.543695
1077.382000,2.525171
1080.382000,2.505689
1083.382000,2.485829
1086.380000,2.465599
1089.380000,2.449808
1092.381000,2.426094
1095.381000,2.404582
1098.381000,2.381904
1101.381000,2.358577
1104.379000,2.337272
1107.379000,2.313792
1110.379000,2.292019
1113.379000,2.265357
1116.380000,2.241554
1119.378000,2.217452
1122.378000,2.188271
1125.378000,2.164009
1128.378000,2.137795
1131.378000,2.111460
1134.376000,2.083666
1137.377000,2.055933
1140.377000,2.025953
1143.377000,1.999849
1146.377000,1.971858
1149.377000,1.944162
1152.375000,1.914978
1155.375000,1.885722
1158.376000,1.856925
1161.376000,1.826602
1164.375000,1.801868
1167.375000,1.772792
1170.375000,1.749271
1173.375000,1.723782
1176.374000,1.694584
1179.374000,1.668075
1182.373000,1.641733
1185.373000,1.614125
1188.373000,1.589507
1191.373000,1.564031
1194.373000,1.535173
1197.373000,1.510221
1200.371000,1.484654
1203.373000,1.462384
1206.371000,1.439754
1209.372000,1.414608
1212.372000,1.391257
1215.370000,1.367338
1218.370000,1.345449
1221.370000,1.322849
1224.371000,1.302252
1227.371000,1.281002
1230.369000,1.261306
1233.369000,1.241004
1236.369000,1.222246
1239.369000,1.202233
1242.369000,1.184869
1245.367000,1.167800
1248.368000,1.154175
1251.368000,1.140050
1254.368000,1.122125
1257.368000,1.108507
1260.368000,1.093695
1263.366000,1.080940
1266.366000,1.066326
1269.367000,1.050573
1272.367000,1.037771
1275.367000,1.030690
1278.365000,1.015334
1281.365000,1.005822
1284.365000,0.996168
1287.365000,0.987693
1290.366000,0.978443
1293.366000,0.972912
1296.364000,0.963299
1299.364000,0.955123
1302.364000,0.963982
1305.364000,0.946747
1308.364000,0.939829
1311.362000,0.935301
1314.363000,0.939288
1317.363000,0.928097
1320.362000,0.922328
1323.362000,0.929794
1326.361000,0.932986
1329.361000,0.927445
1332.361000,0.925731
1335.362000,0.948949
1338.362000,0.949463
1341.360000,0.949208
1344.360000,0.931211
1347.360000,0.949429
1350.360000,0.961612
1353.360000,0.956809
1356.361000,0.959780
1359.359000,0.977729
1362.359000,0.983940
1365.359000,0.976421
1368.359000,0.981598
1371.359000,0.997178
1374.357000,1.007461
1377.357000,1.017894
1380.358000,1.032797
1383.358000,1.024078
1386.358000,1.048068
1389.356000,1.059384
1392.356000,1.070575
1395.356000,1.079513
1398.356000,1.092825
1401.357000,1.102173
1404.357000,1.117553
1407.355000,1.128502
1410.355000,1.139873
1413.355000,1.155678
1416.355000,1.163863
1419.355000,1.178841
1422.354000,1.191032
1425.354000,1.207020
1428.354000,1.222423
1431.354000,1.239168
1434.354000,1.255013
1437.352000,1.268312
1440.352000,1.285877
1443.352000,1.302300
1446.353000,1.319892
1449.353000,1.333769
1452.353000,1.350144
1455.351000,1.367882
1458.351000,1.385546
1461.351000,1.409349
1464.351000,1.427679
1467.352000,1.447939
1470.350000,1.467571
1473.350000,1.484868
1476.350000,1.502446
1479.350000,1.523037
1482.350000,1.539089
1485.348000,1.560319
1488.349000,1.580648
1491.349000,1.600242
1494.349000,1.619993
1497.349000,1.639091
1500.349000,1.656717
1503.347000,1.676064
1506.347000,1.690066
1509.347000,1.715338
1512.348000,1.735201
1515.348000,1.750012
1518.346000,1.770229
1521.346000,1.792084
1524.346000,1.807681
1527.346000,1.827533
1530.346000,1.847036
1533.345000,1.861735
1536.345000,1.880276
1539.345000,1.900245
1542.345000,1.918976
1545.345000,1.936408
1548.345000,1.955697
1551.343000,1.969906
1554.344000,1.984361
1557.344000,1.999645
1560.344000,2.013651
1563.344000,2.029999
1566.342000,2.049059
1569.342000,2.062630
1572.342000,2.070785
1575.342000,2.088330
1578.343000,2.102886
1581.341000,2.114727
1584.341000,2.123956
1587.341000,2.138917
1590.341000,2.149473
1593.341000,2.158179
1596.341000,2.171338
1599.340000,2.165657
1602.340000,2.192846
1605.340000,2.199356
1608.339000,2.206665
1611.339000,2.221402
1614.339000,2.228548
1617.339000,2.238226
1620.338000,2.228524
1623.338000,2.253772
1626.338000,2.259693
1629.338000,2.262783
1632.338000,2.265462
1635.338000,2.276235
1638.336000,2.282837
1641.336000,2.273488
1644.337000,2.292563
1647.337000,2.287171
1650.337000,2.296397
1653.337000,2.291434
1656.335000,2.306314
1659.335000,2.297135
1662.335000,2.303842
1665.336000,2.303244
1668.336000,2.300912
1671.334000,2.308340
1674.334000,2.303458
1677.334000,2.294266
1680.334000,2.294381
1683.334000,2.297268
1686.333000,2.293372
1689.333000,2.285662
1692.333000,2.277768
1695.333000,2.276477
1698.333000,2.268875
1701.331000,2.262702
1704.331000,2.264575
1707.331000,2.252656
1710.332000,2.244821
1713.332000,2.236254
1716.330000,2.229496
1719.330000,2.222901
1722.330000,2.217163
1725.330000,2.207882
1728.330000,2.201008
1731.331000,2.190253
1734.329000,2.181428
1737.329000,2.175132
1740.329000,2.162690
1743.329000,2.157761
1746.329000,2.147134
1749.327000,2.137534
1752.328000,2.127254
1755.328000,2.115713
1758.328000,2.104692
1761.328000,2.095047
1764.326000,2.082109
1767.326000,2.071945
1770.326000,2.060199
1773.326000,2.047768
1776.327000,2.033602
1779.327000,2.020942
1782.325000,2.011176
1785.325000,1.996303
1788.325000,1.983389
1791.325000,1.969094
1794.325000,1.957920
1797.324000,1.943764
1800.324000,1.931061
1803.324000,1.915192
1806.324000,1.899422
1809.324000,1.887157
1812.322000,1.872104
1815.322000,1.858503
1818.323000,1.845697
1821.323000,1.826973
1824.323000,1.815758
1827.323000,1.803081
1830.321000,1.786254
1833.321000,1.772357
1836.321000,1.761577
1839.321000,1.742802
1842.322000,1.731305
1845.320000,1.718757
1848.320000,1.700156
1851.320000,1.692456
1854.320000,1.674823
1857.320000,1.661548
1860.318000,1.650105
1863.319000,1.635637
1866.319000,1.619551
1869.319000,1.608812
1872.319000,1.597506
1875.319000,1.579923
1878.317000,1.567478
1881.317000,1.560972
1884.318000,1.545844
1887.318000,1.533820
1890.318000,1.521548
1893.316000,1.508538
1896.316000,1.498435
1899.316000,1.484640
1902.316000,1.476271
1905.316000,1.468693
1908.315000,1.454949
1911.315000,1.443534
1914.315000,1.440090
1917.315000,1.424969
1920.315000,1.412656
1923.313000,1.404691
1926.313000,1.397386
1929.314000,1.389877
1932.314000,1.380827
1935.314000,1.370540
1938.314000,1.360077
1941.312000,1.358027
1944.312000,1.347499
1947.312000,1.338494
1950.313000,1.328646
1953.313000,1.322982
1956.311000,1.320181
1959.311000,1.314830
1962.311000,1.308358
1965.310000,1.318617
1968.310000,1.305264
1971.310000,1.294301
1974.311000,1.294148
1977.311000,1.291054
1980.309000,1.285632
1983.309000,1.290888
1986.309000,1.306522
1989.309000,1.286825
1992.309000,1.278915
1995.310000,1.278000
1998.308000,1.276335
2001.308000,1.286880
2004.308000,1.288678
2007.308000,1.273799
2010.308000,1.285880
2013.306000,1.298849
2016.307000,1.281016
2019.307000,1.286244
2022.307000,1.302487
2025.307000,1.290456
2028.305000,1.285381
2031.305000,1.312277
2034.305000,1.308089
2037.305000,1.300906
2040.306000,1.319797
2043.306000,1.324179
2046.304000,1.331766
2049.304000,1.332514
2052.304000,1.325627
2055.304000,1.334037
2058.304000,1.345918
2061.303000,1.359479
2064.303000,1.361732
2067.303000,1.369867
2070.303000,1.368399
2073.303000,1.367542
2076.301000,1.391753
2079.301000,1.399538
2082.302000,1.408689
2085.302000,1.419027
2088.302000,1.426251
2091.300000,1.436463
2094.301000,1.445913
2097.301000,1.434991
2100.299000,1.459756
2103.299000,1.473928
2106.300000,1.482852
2109.300000,1.489396
2112.300000,1.503259
2115.298000,1.514865
2118.298000,1.523523
2121.298000,1.532212
2124.298000,1.545810
2127.299000,1.557168
2130.299000,1.567403
2133.297000,1.578815
2136.297000,1.589687
2139.297000,1.595490
2142.297000,1.613612
2145.297000,1.628842
2148.296000,1.637453
2151.296000,1.650578
2154.296000,1.659722
2157.296000,1.670798
2160.296000,1.680986
2163.294000,1.695910
2166.294000,1.710745
2169.294000,1.709501
2172.295000,1.730907
2175.295000,1.743138
2178.295000,1.750978
2181.293000,1.744685
2184.293000,1.774033
2187.293000,1.789198
2190.293000,1.799043
2193.294000,1.809227
2196.292000,1.813766
2199.292000,1.829393
2202.292000,1.838160
2205.292000,1.848780
2208.292000,1.861154
2211.290000,1.872053
2214.291000,1.878536
2217.291000,1.894374
2220.291000,1.901455
2223.291000,1.911898
2226.291000,1.924595
2229.289000,1.935429
2232.289000,1.945080
2235.289000,1.944030
2238.290000,1.961863
2241.290000,1.968132
2244.288000,1.977331
2247.288000,1.985160
2250.288000,1.988777
2253.288000,2.004050
2256.288000,1.999730
2259.287000,2.008378
2262.287000,2.021639
2265.287000,2.027262
2268.287000,2.039813
2271.287000,2.042196
2274.285000,2.052384
2277.285000,2.056484
2280.286000,2.044270
2283.286000,2.068249
2286.286000,2.058156
2289.286000,2.073801
2292.284000,2.084339
2295.284000,2.092559
2298.284000,2.079770
2301.284000,2.090006
2304.285000,2.101071
2307.283000,2.103080
2310.283000,2.102761
2313.283000,2.096217
2316.283000,2.112486
2319.283000,2.105157
2322.283000,2.120159
2325.282000,2.108438
2328.282000,2.112680
2331.282000,2.114846
2334.282000,2.113200
2337.282000,2.115910
2340.280000,2.104260
2343.280000,2.109471
2346.281000,2.114530
2349.281000,2.114730
2352.281000,2.107669
2355.279000,2.103050
2358.279000,2.108849
2361.279000,2.112405
2364.279000,2.099518
2367.279000,2.099042
2370.280000,2.100116
2373.278000,2.094942
2376.278000,2.083282
2379.278000,2.089380
2382.278000,2.074749
2385.278000,2.080062
2388.276000,2.069273
2391.277000,2.063861
2394.277000,2.056487
2397.277000,2.056616
2400.277000,2.045255
2403.275000,2.040466
2406.275000,2.033323
2409.275000,2.027374
2412.276000,2.018702
2415.276000,2.015629
2418.274000,2.007671
2421.274000,1.998741
2424.274000,2.006906
2427.274000,1.983878
2430.274000,1.977032
2433.274000,1.971164
2436.273000,1.963930
2439.273000,1.957760
2442.273000,1.946239
2445.273000,1.939988
2448.273000,1.930911
2451.271000,1.924819
2454.271000,1.913679
2457.272000,1.901700
2460.272000,1.896012
2463.272000,1.888581
2466.272000,1.880643
2469.270000,1.869891
2472.270000,1.861769
2475.270000,1.851687
2478.271000,1.845479
2481.271000,1.832585
2484.269000,1.824539
2487.269000,1.818243
2490.269000,1.811298
2493.269000,1.802826
2496.269000,1.793236
2499.267000,1.784350
2502.268000,1.774488
2505.268000,1.767468
2508.268000,1.760669
2511.268000,1.749502
2514.266000,1.746378
2517.266000,1.738896
2520.266000,1.727147
2523.267000,1.722932
2526.267000,1.711537
2529.267000,1.702358
2532.265000,1.704521
2535.265000,1.714376
2538.265000,1.686282
2541.265000,1.674751
2544.266000,1.665814
2547.264000,1.658607
2550.264000,1.652050
2553.264000,1.646604
2556.264000,1.646356
2559.264000,1.635542
2562.262000,1.630178
2565.263000,1.623216
2568.263000,1.615472
2571.263000,1.614629
2574.263000,1.605321
2577.263000,1.604372
2580.261000,1.603251
2583.261000,1.593375
2586.261000,1.588307
2589.262000,1.584129
2592.262000,1.586794
2595.260000,1.580471
2598.260000,1.576439
2601.260000,1.571238
2604.260000,1.568862
2607.260000,1.573818
2610.259000,1.563637
2613.259000,1.559554
2616.260000,1.555084
2619.258000,1.557375
2622.258000,1.568522
2625.258000,1.575392
2628.258000,1.577211
2631.259000,1.569416
2634.257000,1.554686
2637.257000,1.559513
2640.257000,1.568736
2643.257000,1.551116
2646.257000,1.565833
2649.257000,1.571163
2652.255000,1.564340
2655.256000,1.572071
2658.256000,1.563654
2661.256000,1.571826
2664.256000,1.560934
2667.254000,1.556358
2670.254000,1.578577
2673.254000,1.581069
2676.255000,1.585431
2679.255000,1.589806
2682.253000,1.577092
2685.253000,1.576816
2688.253000,1.600776
2691.253000,1.585118
2694.253000,1.613439
2697.254000,1.609662
2700.252000,1.615390
2703.252000,1.601507
2706.252000,1.626466
2709.252000,1.620047
2712.252000,1.612555
2715.250000,1.643109
2718.250000,1.634947
2721.251000,1.649963
2724.251000,1.658369
2727.251000,1.652522
2730.249000,1.646563
2733.249000,1.661409
2736.249000,1.663125
2739.249000,1.672423
2742.250000,1.676941
2745.248000,1.679130
2748.248000,1.687346
2751.248000,1.707206
2754.248000,1.693734
2757.248000,1.702144
2760.248000,1.724921
2763.247000,1.726651
