Time(s),Position(V)
0.343000,-1.055862
3.356000,-1.042292
6.356000,-1.027739
9.356000,-1.013831
12.356000,-0.993003
15.355000,-0.966491
18.355000,-0.949605
21.355000,-0.920367
24.355000,-0.892957
27.355000,-0.866730
30.353000,-0.834687
33.353000,-0.803075
36.353000,-0.773894
39.354000,-0.738856
42.354000,-0.702539
45.354000,-0.665825
48.352000,-0.626878
51.352000,-0.581060
54.352000,-0.541898
57.352000,-0.495556
60.353000,-0.453641
63.351000,-0.405076
66.351000,-0.352922
69.351000,-0.299108
72.351000,-0.243208
75.351000,-0.186722
78.351000,-0.140738
81.350000,-0.081665
84.350000,-0.024602
87.350000,0.034144
90.350000,0.095698
93.350000,0.157599
96.348000,0.216179
99.348000,0.282400
102.348000,0.346834
105.349000,0.412960
108.349000,0.479749
111.347000,0.543299
114.347000,0.612841
117.347000,0.684658
120.347000,0.757006
123.347000,0.821436
126.346000,0.892457
129.346000,0.965807
132.346000,1.036305
135.346000,1.109370
138.346000,1.172688
141.346000,1.245104
144.344000,1.321180
147.345000,1.398389
150.345000,1.474720
153.345000,1.545150
156.345000,1.622124
159.343000,1.693071
162.344000,1.775811
165.344000,1.854318
168.342000,1.933162
171.343000,2.010329
174.343000,2.088262
177.343000,2.155415
180.343000,2.228809
183.341000,2.301279
186.341000,2.354617
189.341000,2.423024
192.342000,2.484384
195.342000,2.549661
198.340000,2.615767
201.340000,2.678521
204.340000,2.743066
207.340000,2.808193
210.340000,2.879731
213.341000,2.946208
216.339000,3.017386
219.339000,3.088570
222.338000,3.151926
225.338000,3.216621
228.338000,3.273304
231.338000,3.329079
234.338000,3.382107
237.337000,3.430614
240.337000,3.478764
243.337000,3.526462
246.337000,3.570787
249.337000,3.621082
252.337000,3.670456
255.335000,3.727842
258.336000,3.774340
261.336000,3.825356
264.336000,3.867785
267.336000,3.908476
270.334000,3.947533
273.334000,3.986440
276.334000,4.011630
279.335000,4.046171
282.335000,4.072935
285.333000,4.100301
288.333000,4.122846
291.333000,4.148084
294.333000,4.160478
297.333000,4.175130
300.333000,4.203346
303.332000,4.224473
306.332000,4.245723
309.332000,4.261170
312.332000,4.278140
315.332000,4.293163
318.330000,4.306577
321.330000,4.313257
324.331000,4.320885
327.331000,4.335636
330.331000,4.337682
333.329000,4.344070
336.329000,4.339052
339.329000,4.338770
342.329000,4.337308
345.330000,4.327847
348.330000,4.328099
351.328000,4.305190
354.328000,4.296253
357.328000,4.281414
360.328000,4.264991
363.328000,4.251363
366.326000,4.229552
369.327000,4.210100
372.327000,4.190006
375.327000,4.169963
378.327000,4.145861
381.325000,4.126592
384.325000,4.102721
387.325000,4.081098
390.326000,4.054762
393.326000,4.031503
396.324000,4.006568
399.324000,3.978583
402.324000,3.947526
405.324000,3.917913
408.324000,3.883681
411.325000,3.849713
414.323000,3.807975
417.323000,3.766637
420.323000,3.721502
423.323000,3.672605
426.323000,3.624319
429.321000,3.579405
432.321000,3.534858
435.322000,3.493069
438.322000,3.452459
441.322000,3.412661
444.322000,3.370926
447.320000,3.327977
450.320000,3.284655
453.320000,3.241750
456.321000,3.196558
459.321000,3.149339
462.319000,3.099357
465.319000,3.043939
468.319000,2.987011
471.319000,2.930591
474.319000,2.872293
477.318000,2.814336
480.318000,2.761787
483.318000,2.710880
486.318000,2.659681
489.318000,2.611402
492.316000,2.562286
495.316000,2.514469
498.316000,2.469695
501.317000,2.426172
504.317000,2.380146
507.317000,2.329056
510.315000,2.282028
513.315000,2.230948
516.315000,2.183192
519.315000,2.134100
522.316000,2.083792
525.314000,2.034673
528.314000,1.984833
531.314000,1.933148
534.314000,1.883145
537.314000,1.836406
540.312000,1.789024
543.313000,1.740565
546.313000,1.694241
549.313000,1.649874
552.313000,1.605501
555.312000,1.563202
558.312000,1.518475
561.312000,1.477868
564.310000,1.437568
567.311000,1.399076
570.311000,1.359822
573.311000,1.324315
576.311000,1.288182
579.311000,1.252205
582.309000,1.218775
585.309000,1.186222
588.310000,1.155708
591.310000,1.128948
594.310000,1.101497
597.308000,1.076416
600.308000,1.047656
603.308000,1.022585
606.308000,0.999928
609.308000,0.979640
612.307000,0.955776
615.307000,0.937956
618.307000,0.915937
621.307000,0.900912
624.307000,0.885152
627.305000,0.869769
630.305000,0.853159
633.306000,0.843624
636.306000,0.835941
639.305000,0.827279
642.305000,0.821160
645.305000,0.812203
648.305000,0.820817
651.303000,0.806189
654.304000,0.811139
657.304000,0.798690
660.304000,0.799128
663.304000,0.816136
666.304000,0.804438
669.302000,0.815120
672.302000,0.825433
675.302000,0.831138
678.303000,0.837219
681.303000,0.842849
684.301000,0.856202
687.301000,0.870956
690.301000,0.883068
693.301000,0.890275
696.301000,0.902693
699.300000,0.920595
702.300000,0.939173
705.300000,0.956513
708.300000,0.977104
711.300000,0.994540
714.298000,1.015018
717.298000,1.034585
720.299000,1.060986
723.299000,1.085703
726.299000,1.113035
729.299000,1.139445
732.297000,1.163843
735.297000,1.191838
738.297000,1.197049
741.297000,1.233797
744.298000,1.260490
747.296000,1.289110
750.296000,1.319226
753.296000,1.348923
756.296000,1.384801
759.296000,1.419347
762.296000,1.454058
765.295000,1.487428
768.295000,1.520827
771.295000,1.556906
774.295000,1.596129
777.295000,1.632833
780.293000,1.671995
783.293000,1.707818
786.294000,1.746358
789.293000,1.785968
792.293000,1.822057
795.293000,1.861324
798.293000,1.903957
801.293000,1.945706
804.291000,1.985170
807.292000,2.025386
810.292000,2.065098
813.292000,2.105018
816.291000,2.143473
819.291000,2.179255
822.291000,2.218992
825.291000,2.259262
828.289000,2.298485
831.290000,2.334706
834.290000,2.372528
837.290000,2.405894
840.290000,2.441497
843.288000,2.471558
846.288000,2.506447
849.288000,2.534125
852.289000,2.571070
855.289000,2.604283
858.289000,2.636724
861.287000,2.670399
864.287000,2.705183
867.287000,2.737362
870.287000,2.771584
873.288000,2.802710
876.286000,2.825588
879.286000,2.869479
882.286000,2.904782
885.286000,2.936312
888.286000,2.972003
891.284000,3.005107
894.284000,3.039795
897.285000,3.073620
900.285000,3.104205
903.285000,3.135354
906.283000,3.165354
909.283000,3.194450
912.283000,3.221013
915.283000,3.244878
918.284000,3.268483
921.284000,3.293398
924.282000,3.301044
927.283000,3.319312
930.281000,3.347164
933.281000,3.365606
936.281000,3.382593
939.282000,3.398384
942.282000,3.415609
945.282000,3.427850
948.280000,3.441676
951.280000,3.448825
954.280000,3.467797
957.280000,3.477805
960.280000,3.483190
963.279000,3.500221
966.279000,3.508638
969.279000,3.519727
972.279000,3.520944
975.279000,3.526394
978.277000,3.534413
981.277000,3.535011
984.278000,3.538720
987.278000,3.545084
990.278000,3.550469
993.276000,3.550431
996.276000,3.550822
999.276000,3.550911
1002.276000,3.554429
1005.277000,3.542167
1008.277000,3.543904
1011.275000,3.540338
1014.275000,3.532047
1017.275000,3.530613
1020.275000,3.522542
1023.275000,3.516117
1026.273000,3.510641
1029.274000,3.500680
1032.274000,3.489720
1035.274000,3.481052
1038.274000,3.473954
1041.274000,3.462494
1044.272000,3.455328
1047.272000,3.439589
1050.273000,3.424553
1053.273000,3.410452
1056.273000,3.396133
1059.271000,3.378201
1062.271000,3.366395
1065.271000,3.352141
1068.271000,3.334416
1071.272000,3.317398
1074.270000,3.302233
1077.270000,3.285977
1080.270000,3.265244
1083.270000,3.245724
1086.270000,3.225990
1089.270000,3.203023
1092.268000,3.184112
1095.269000,3.163753
1098.269000,3.143856
1101.269000,3.118897
1104.269000,3.094356
1107.267000,3.066362
1110.267000,3.041196
1113.267000,3.012847
1116.268000,2.982810
1119.268000,2.953272
1122.266000,2.925223
1125.266000,2.894689
1128.266000,2.866531
1131.266000,2.838734
1134.266000,2.810549
1137.265000,2.784077
1140.265000,2.756052
1143.265000,2.728904
1146.265000,2.703595
1149.265000,2.677324
1152.265000,2.653936
1155.263000,2.626869
1158.263000,2.604728
1161.264000,2.578726
1164.264000,2.552839
1167.264000,2.530301
1170.262000,2.505090
1173.262000,2.480026
1176.262000,2.458868
1179.262000,2.436680
1182.263000,2.411102
1185.261000,2.388394
1188.261000,2.364091
1191.262000,2.339605
1194.260000,2.314816
1197.260000,2.294800
1200.260000,2.268736
1203.261000,2.245919
1206.261000,2.221708
1209.259000,2.200947
1212.259000,2.177777
1215.259000,2.155547
1218.259000,2.134573
1221.259000,2.110964
1224.257000,2.089516
1227.258000,2.067916
1230.258000,2.049260
1233.258000,2.025504
1236.258000,2.004683
1239.258000,1.985568
1242.256000,1.966714
1245.256000,1.947861
1248.257000,1.932237
1251.257000,1.912843
1254.257000,1.894421
1257.255000,1.880477
1260.255000,1.861654
1263.256000,1.848926
1266.254000,1.831368
1269.255000,1.818861
1272.255000,1.808860
1275.255000,1.795106
1278.255000,1.782270
1281.253000,1.772751
1284.253000,1.762029
1287.253000,1.749217
1290.253000,1.740290
1293.254000,1.732770
1296.254000,1.728273
1299.252000,1.717347
1302.252000,1.714593
1305.252000,1.706271
1308.252000,1.702042
1311.252000,1.696868
1314.251000,1.693078
1317.251000,1.710718
1320.251000,1.696212
1323.251000,1.689967
1326.251000,1.710051
1329.249000,1.692565
1332.249000,1.686126
1335.250000,1.691416
1338.250000,1.709569
1341.250000,1.693296
1344.248000,1.716718
1347.248000,1.721817
1350.248000,1.718822
1353.248000,1.728215
1356.248000,1.728324
1359.249000,1.739844
1362.247000,1.731053
1365.247000,1.743312
1368.246000,1.765881
1371.246000,1.769722
1374.246000,1.778003
1377.246000,1.789160
1380.247000,1.795048
1383.247000,1.811740
1386.245000,1.817009
1389.245000,1.829413
1392.245000,1.840431
1395.245000,1.854882
1398.245000,1.855164
1401.244000,1.877750
1404.244000,1.896216
1407.244000,1.912690
1410.244000,1.925227
1413.244000,1.946600
1416.242000,1.959344
1419.242000,1.977759
1422.242000,1.994070
1425.243000,2.010676
1428.243000,2.029818
1431.243000,2.043726
1434.242000,2.066009
1437.241000,2.079332
1440.241000,2.099959
1443.241000,2.120281
1446.242000,2.138061
1449.240000,2.155265
1452.240000,2.165120
1455.240000,2.194335
1458.240000,2.214647
1461.240000,2.231097
1464.238000,2.253829
1467.239000,2.271241
1470.240000,2.293385
1473.238000,2.310481
1476.238000,2.329627
1479.238000,2.343918
1482.238000,2.365474
1485.238000,2.382696
1488.236000,2.400363
1491.237000,2.420196
1494.237000,2.419509
1497.237000,2.452507
1500.237000,2.465572
1503.235000,2.470195
1506.236000,2.496894
1509.236000,2.516475
1512.235000,2.535866
1515.235000,2.544942
1518.235000,2.565325
1521.235000,2.587112
1524.235000,2.600928
1527.235000,2.617493
1530.233000,2.631870
1533.234000,2.649214
1536.234000,2.666724
1539.234000,2.680346
1542.234000,2.701967
1545.233000,2.713022
1548.233000,2.728663
1551.233000,2.747383
1554.231000,2.755855
1557.232000,2.778254
1560.232000,2.769109
1563.232000,2.798997
1566.232000,2.818368
1569.230000,2.826917
1572.230000,2.843316
1575.230000,2.859141
1578.231000,2.873469
1581.231000,2.884810
1584.229000,2.901212
1587.229000,2.913570
1590.229000,2.922541
1593.229000,2.935802
1596.229000,2.947785
1599.228000,2.954951
1602.228000,2.970830
1605.228000,2.963943
1608.228000,2.991999
1611.228000,2.993270
1614.228000,3.007500
1617.226000,3.015689
1620.226000,3.026785
1623.227000,3.030188
1626.227000,3.025470
1629.227000,3.043772
1632.225000,3.049606
1635.225000,3.037878
1638.225000,3.052438
1641.225000,3.062014
1644.226000,3.065733
1647.224000,3.055018
1650.225000,3.073871
1653.225000,3.078624
1656.223000,3.065145
1659.223000,3.069748
1662.223000,3.072868
1665.224000,3.073106
1668.224000,3.071893
1671.222000,3.061174
1674.222000,3.056575
1677.222000,3.051989
1680.222000,3.052506
1683.222000,3.048100
1686.220000,3.042402
1689.221000,3.041209
1692.221000,3.032489
1695.221000,3.027129
1698.221000,3.021241
1701.221000,3.013164
1704.219000,3.006606
1707.219000,2.998423
1710.220000,2.992794
1713.220000,2.983085
1716.220000,2.972244
1719.218000,2.962600
1722.218000,2.953432
1725.218000,2.944668
1728.218000,2.934748
1731.219000,2.922357
1734.217000,2.911588
1737.217000,2.901403
1740.217000,2.889175
1743.217000,2.875621
1746.217000,2.864400
1749.217000,2.852944
1752.215000,2.838401
1755.216000,2.827186
1758.216000,2.813207
1761.216000,2.801183
1764.216000,2.789255
1767.214000,2.779899
1770.214000,2.766556
1773.214000,2.752265
1776.215000,2.741190
1779.215000,2.727534
1782.215000,2.714630
1785.213000,2.703017
1788.213000,2.689382
1791.213000,2.676318
1794.213000,2.664209
1797.214000,2.650264
1800.212000,2.638308
1803.212000,2.626522
1806.212000,2.613220
1809.212000,2.599031
1812.212000,2.588051
1815.212000,2.573348
1818.210000,2.560488
1821.211000,2.548066
1824.211000,2.537246
1827.211000,2.523764
1830.209000,2.512654
1833.209000,2.499825
1836.209000,2.485292
1839.209000,2.474019
1842.210000,2.462230
1845.210000,2.454605
1848.208000,2.442088
1851.208000,2.429949
1854.208000,2.419220
1857.208000,2.404680
1860.208000,2.397106
1863.207000,2.384913
1866.207000,2.371835
1869.207000,2.360878
1872.207000,2.346737
1875.207000,2.338625
1878.205000,2.325354
1881.205000,2.314452
1884.205000,2.306263
1887.206000,2.299406
1890.206000,2.287062
1893.206000,2.275246
1896.204000,2.265462
1899.204000,2.264415
1902.204000,2.248625
1905.204000,2.236958
1908.205000,2.228972
1911.203000,2.218907
1914.203000,2.215864
1917.203000,2.207335
1920.202000,2.200390
1923.202000,2.188849
1926.202000,2.181703
1929.203000,2.175499
1932.203000,2.170692
1935.201000,2.162958
1938.201000,2.155915
1941.201000,2.153715
1944.201000,2.146134
1947.201000,2.143629
1950.199000,2.137405
1953.201000,2.138673
1956.200000,2.140852
1959.200000,2.127220
1962.200000,2.126853
1965.200000,2.122947
1968.198000,2.121087
1971.198000,2.140654
1974.199000,2.131914
1977.198000,2.113384
1980.198000,2.111004
1983.198000,2.128025
1986.198000,2.129528
1989.198000,2.111161
1992.196000,2.128233
1995.197000,2.140111
1998.197000,2.117766
2001.197000,2.137887
2004.197000,2.140250
2007.195000,2.125085
2010.195000,2.139917
2013.195000,2.135953
2016.195000,2.152865
2019.196000,2.138003
2022.194000,2.155102
2025.194000,2.152804
2028.194000,2.159219
2031.194000,2.174799
2034.194000,2.168639
2037.194000,2.179028
2040.193000,2.185813
2043.193000,2.190378
2046.193000,2.200097
2049.193000,2.189807
2052.193000,2.197473
2055.191000,2.215616
2058.191000,2.223425
2061.192000,2.230655
2064.192000,2.234864
2067.192000,2.235741
2070.190000,2.253217
2073.190000,2.265510
2076.190000,2.262515
2079.190000,2.269603
2082.190000,2.290214
2085.189000,2.298267
2088.189000,2.294538
2091.189000,2.316379
2094.189000,2.311229
2097.189000,2.331160
2100.189000,2.332387
2103.187000,2.342480
2106.188000,2.348875
2109.188000,2.373647
2112.188000,2.373293
2115.188000,2.384780
2118.186000,2.394322
2121.186000,2.405014
2124.186000,2.400819
2127.187000,2.423486
2130.187000,2.427708
2133.187000,2.440939
2136.185000,2.452871
2139.185000,2.461346
2142.185000,2.464263
2145.185000,2.471514
2148.185000,2.476467
2151.184000,2.492611
2154.184000,2.502354
2157.184000,2.510189
2160.184000,2.523444
2163.184000,2.527833
2166.182000,2.537739
2169.182000,2.549283
2172.183000,2.554549
2175.183000,2.563452
2178.183000,2.566906
2181.181000,2.588714
2184.181000,2.581582
2187.181000,2.597365
2190.181000,2.608295
2193.182000,2.619921
2196.180000,2.617602
2199.180000,2.631333
2202.180000,2.627049
2205.180000,2.647681
2208.180000,2.655234
2211.180000,2.667435
2214.178000,2.665837
2217.179000,2.679588
2220.179000,2.688257
2223.179000,2.699257
2226.179000,2.703751
2229.177000,2.696432
2232.177000,2.716547
2235.177000,2.714232
2238.178000,2.730930
2241.178000,2.719882
2244.178000,2.735655
2247.176000,2.746466
2250.176000,2.744579
2253.176000,2.743760
2256.176000,2.755675
2259.177000,2.753115
2262.175000,2.770500
2265.175000,2.769616
2268.175000,2.776085
2271.175000,2.762446
2274.175000,2.777139
2277.173000,2.783792
2280.173000,2.770303
2283.174000,2.790587
2286.174000,2.779760
2289.174000,2.776955
2292.172000,2.789880
2295.172000,2.797753
2298.172000,2.794466
2301.172000,2.787738
2304.173000,2.787569
2307.173000,2.787552
2310.171000,2.787198
2313.171000,2.779835
2316.171000,2.796111
2319.171000,2.778761
2322.171000,2.775007
2325.170000,2.771282
2328.170000,2.766907
2331.170000,2.775837
2334.170000,2.776612
2337.170000,2.756953
2340.168000,2.756793
2343.168000,2.754584
2346.168000,2.747445
2349.169000,2.746646
2352.169000,2.740517
2355.169000,2.746387
2358.167000,2.731409
2361.168000,2.726395
2364.167000,2.721065
2367.167000,2.717863
2370.168000,2.714623
2373.166000,2.706335
2376.166000,2.705536
2379.166000,2.699346
2382.166000,2.690980
2385.166000,2.683650
2388.164000,2.675645
2391.165000,2.674111
2394.165000,2.666514
2397.164000,2.658294
2400.164000,2.650832
2403.164000,2.644995
2406.164000,2.639651
2409.164000,2.636537
2412.163000,2.626441
2415.163000,2.620063
2418.163000,2.612170
2421.163000,2.604079
2424.163000,2.602665
2427.163000,2.590821
2430.161000,2.583346
2433.161000,2.579212
2436.162000,2.565040
2439.162000,2.559975
2442.162000,2.551891
2445.160000,2.551282
2448.160000,2.540176
2451.160000,2.531382
2454.160000,2.522451
2457.161000,2.516584
2460.159000,2.507704
2463.159000,2.501650
2466.159000,2.499451
2469.159000,2.486988
2472.159000,2.480264
2475.159000,2.471969
2478.158000,2.466306
2481.158000,2.461734
2484.158000,2.457253
2487.158000,2.449574
2490.158000,2.445386
2493.156000,2.433042
2496.156000,2.430238
2499.156000,2.420566
2502.157000,2.418795
2505.157000,2.408226
2508.155000,2.398939
2511.155000,2.391868
2514.155000,2.389723
2517.155000,2.381295
2520.155000,2.377967
2523.154000,2.374153
2526.154000,2.366440
2529.154000,2.360532
2532.154000,2.352210
2535.154000,2.346298
2538.154000,2.339900
2541.152000,2.338799
2544.153000,2.335114
2547.153000,2.329940
2550.153000,2.323641
2553.153000,2.319959
2556.151000,2.317692
2559.151000,2.316101
2562.151000,2.315971
2565.151000,2.311250
2568.152000,2.302469
2571.150000,2.309111
2574.150000,2.311675
2577.150000,2.305090
2580.150000,2.298974
2583.150000,2.294157
2586.150000,2.288436
2589.149000,2.287504
2592.149000,2.284237
2595.149000,2.287222
2598.149000,2.279992
2601.149000,2.286294
2604.147000,2.278747
2607.147000,2.277969
2610.148000,2.296805
2613.148000,2.278169
2616.148000,2.274586
2619.146000,2.289806
2622.146000,2.286083
2625.146000,2.299141
2628.146000,2.279890
2631.146000,2.295748
2634.147000,2.280026
2637.145000,2.299885
2640.145000,2.285652
2643.145000,2.306528
2646.145000,2.289595
2649.145000,2.294426
2652.143000,2.297927
2655.144000,2.303478
2658.144000,2.312620
2661.144000,2.300031
2664.144000,2.318586
2667.142000,2.305494
2670.142000,2.321026
2673.142000,2.302122
2676.143000,2.325959
2679.143000,2.328169
2682.143000,2.312854
2685.141000,2.337823
2688.141000,2.330813
2691.141000,2.323994
2694.141000,2.342168
2697.141000,2.337136
2700.140000,2.352754
2703.140000,2.343422
2706.141000,2.354960
2709.139000,2.349681
2712.139000,2.366906
2715.139000,2.354331
2718.139000,2.377199
2721.140000,2.382536
2724.138000,2.370387
2727.138000,2.386918
2730.138000,2.379926
2733.138000,2.401590
2736.138000,2.397062
2739.136000,2.391980
2742.137000,2.415654
2745.137000,2.410847
2748.137000,2.412016
2751.137000,2.415919
2754.135000,2.426083
2757.135000,2.424248
2760.135000,2.432777
2763.135000,2.443730
2766.136000,2.444383
